# RotX(deg) RotY(deg) RotZ(deg) RotYY(deg) RotZZ(deg) Distance(A)
-135.206 19.4914 15.8729 12.4935 46.4611 6.18189
-135.239 9.13231 22.4746 5.31221 43.5286 6.16361
-113.439 15.9058 50.6651 0.350121 47.2331 6.08746
-153.904 11.1009 31.494 7.2962 49.2746 6.11487
-116.764 27.9939 60.3529 8.36812 58.8269 6.01847
-116.534 8.05075 28.8731 1.04415 38.9196 5.99452
-98.0616 19.1338 60.3776 5.35066 51.7614 6.08034
-96.0686 32.494 58.1849 10.5727 51.2795 6.21313
-97.7508 18.7072 36.2398 8.28669 41.8562 6.17484
-100.697 23.7352 53.2365 7.01897 50.6614 6.14042
-77.8859 35.3071 70.8425 10.8677 47.2994 6.16919
-103.043 37.4813 66.5824 8.41811 51.6944 6.04461
-114.439 28.0877 53.8112 13.845 54.4972 6.07627
-107.906 36.017 74.551 16.1492 65.6629 6.18778
-126.382 15.1627 36.7717 11.2539 48.3397 6.13859
-136.898 14.3651 36.243 8.30697 56.3139 6.1188
-116.207 20.7769 43.8314 5.626 51.3016 6.16181
-100.766 28.5851 56.5568 7.09 49.2768 6.15827
-103.598 24.0646 45.7446 5.31649 41.6523 6.15706
-111.233 16.4867 42.0456 8.66589 53.0491 6.11707
-85.5467 22.7342 65.6582 5.35203 48.8701 6.09861
-92.6177 25.9799 67.7399 9.0935 51.9922 6.12881
-163.142 2.64387 45.2789 8.69702 60.9764 6.14575
-161.162 -6.79255 25.4935 4.00828 51.5012 6.1403
-152.036 13.1747 31.8227 12.8153 59.9558 6.09206
-98.2364 24.9737 45.481 2.6827 40.811 6.22853
-140.33 -2.75658 20.4946 -2.0807 43.8784 6.00305
-143.063 19.8161 41.347 9.69344 50.7947 6.14731
-115.904 8.7391 41.0834 -4.79625 43.9867 6.09133
-96.1991 35.7278 76.0895 6.56316 56.3307 6.1571
-94.587 12.4869 47.1465 -0.786802 47.7061 6.14196
-145.948 15.1007 42.3128 5.85963 55.3379 6.18976
-127.664 26.8746 48.9655 6.39098 49.3376 6.18204
-38.615 0.857626 91.5723 -0.343653 69.8434 5.98877
-115.252 22.58 46.2396 2.68151 46.4763 6.18366
-94.5396 28.1922 69.715 12.2713 58.8033 6.03885
-142.42 22.174 33.0383 12.0746 45.1242 6.22385
-129.453 17.7787 48.7869 4.57067 53.7081 6.09301
-128.704 21.371 41.8961 8.04624 53.3892 6.21697
-138.549 16.2426 45.9053 6.69048 54.7467 6.0715
-131.195 3.44135 -3.35723 0.750538 32.2586 5.90492
-117.554 28.6527 52.5495 7.52348 50.1405 6.2229
-138.721 9.94863 31.9457 7.82112 49.0839 6.2198
-151.133 3.02593 32.0485 9.48395 57.2418 6.20536
-167.391 22.4962 45.8956 19.1 61.3712 6.08476
-113.767 24.5577 55.3341 10.4168 52.277 6.17459
-167.203 6.23365 42.6235 10.0396 54.2395 6.09422
-154.74 18.7494 39.8869 9.38562 52.6173 6.13528
-97.3826 13.8809 35.0694 0.205556 39.5491 5.93513
-165.163 -7.53492 28.033 7.33073 53.5355 6.01012
-135.26 10.5983 39.775 0.177627 46.4927 6.10394
-140.469 7.88771 28.6803 7.84837 56.5356 6.17294
-125.573 14.2891 37.8439 10.0785 53.6653 6.13519
-99.4854 33.3278 52.8666 9.15044 43.9663 6.1264
-101.773 24.1007 63.3998 6.0229 53.3927 6.18667
-116.969 27.1694 47.1428 7.20503 50.9004 6.2203
-130.199 24.006 39.9292 12.3123 56.0135 6.12758
-149.432 -4.50271 21.2379 4.33792 50.3424 6.24955
-158.228 9.82741 30.1486 16.5949 57.1075 6.10017
-118.527 12.6249 -3.49096 5.03936 32.5237 5.9345
-140.541 8.1116 40.5586 8.32854 53.2892 6.03636
-141.993 24.3018 41.0983 10.7283 50.0007 6.17347
-154.334 3.96725 21.4026 1.59749 45.2383 6.13104
-128.215 13.2696 38.7015 4.31125 49.1038 6.19098
-113.602 24.2209 57.3178 10.0208 57.8941 6.00948
-136.222 22.1168 46.7372 17.255 60.982 6.08383
-101.646 25.2881 63.7658 8.12191 55.3082 6.06742
-141.852 0.0185233 27.6521 0.427155 43.0631 5.95144
-135.499 24.6961 48.2951 17.2221 68.0973 5.99986
-143.678 -1.29024 25.4088 4.56222 46.8134 6.05147
-124.073 13.5745 36.8166 -3.6073 41.793 6.13873
-153.492 3.71383 25.971 4.26097 46.8308 6.04566
-121.736 5.83422 41.2879 1.36586 52.5304 6.0303
-145.706 3.62431 35.974 5.43488 55.6941 6.1299
-137.873 13.0846 32.3433 8.55338 50.8706 6.13512
-113.396 31.8572 57.1709 7.73598 49.0677 6.17549
-153.714 7.40122 11.5586 9.82794 45.7324 6.07019
-126.153 17.5645 28.827 5.67593 45.3466 6.29018
-140.117 10.4419 23.2978 10.56 50.7516 6.21828
-110.912 5.80463 36.3513 -0.0111761 44.981 6.09367
-88.6874 18.6748 69.1129 1.90055 45.53 6.11205
-156.02 1.03764 19.9718 8.19801 51.7016 6.12645
-140.253 4.95252 23.4465 6.5986 46.2405 6.13422
-117.95 31.2608 43.0292 11.8091 46.2215 6.17953
-112.364 26.5547 57.4037 3.05361 52.0641 6.18152
-159 13.4791 36.0944 10.2489 54.859 6.13107
-85.9093 29.7748 73.2933 9.08787 58.8564 6.10037
-102.166 24.8183 73.7599 9.05365 63.8006 6.02027
-141.94 8.93318 32.185 6.77098 49.4573 6.2205
-130.971 18.3075 49.88 -1.18611 45.4882 6.04229
-100.638 31.0941 74.9492 8.82851 55.3895 6.09287
-104.669 11.2104 38.6888 4.1533 46.7417 6.09244
-128.873 22.8257 24.4048 14.6585 52.8096 6.16422
-113.849 39.4581 59.7705 11.1637 53.4029 6.13897
-111.534 16.9679 33.2948 5.05963 42.9028 6.13292
-90.3335 39.2376 62.5808 17.0999 52.0223 6.13153
-138.355 7.95193 17.6214 4.37632 45.33 6.19568
-104.225 23.978 58.0034 10.1017 53.1306 6.26807
-153.952 14.5196 39.0283 18.6438 60.5778 5.99234
-117.047 21.79 58.0923 9.0114 53.7954 6.07718
-140.381 7.61154 23.4217 6.71059 53.7139 6.1613
-151.206 -0.702932 19.1816 -2.22666 45.4691 6.16187
-162.956 -3.85051 23.5974 9.02929 48.4136 6.14848
-159.489 -8.28365 31.0164 -6.66135 47.7212 6.07899
-113.611 12.6405 49.948 1.68692 50.3523 6.07274
-59.4113 17.8574 88.5543 5.92014 50.5479 6.17803
-115.954 4.99924 39.5079 -6.07346 42.6368 6.04822
-91.8763 31.3908 59.5761 6.74833 45.9443 6.1874
-100.923 12.5263 47.2442 -2.7798 45.9849 6.12637
-105.911 30.3583 64.6267 13.0701 63.5611 6.02794
-140.844 21.2478 39.4358 12.6217 56.5826 6.12248
-128.206 26.0812 47.4373 8.21193 51.3495 6.21002
-149.067 -5.90705 18.0966 -0.190696 42.1723 6.18417
-92.1359 22.9153 53.6778 0.964112 38.1361 6.20207
-111.125 15.8254 37.7846 4.77689 47.5221 6.01789
-82.3892 24.521 63.8275 5.55169 49.6388 6.11073
-140.973 3.10683 24.872 4.28555 50.3133 6.15926
-128.052 18.3472 31.7658 9.96173 47.2882 6.17451
-153.151 -4.79815 28.4124 3.60427 52.436 6.04522
-95.2461 20.6087 30.8159 4.99449 34.3763 6.09092
-119.175 27.9704 50.7191 3.42896 46.8673 6.04334
-146.529 -7.81476 14.6904 -1.03647 38.0044 6.09721
-155.578 6.83978 26.0735 8.67714 51.0263 6.11306
-139.853 8.86738 35.7975 6.84472 51.1899 6.07668
-112.983 28.4542 38.1552 7.07245 40.3649 6.01585
-137.218 4.86065 41.8474 1.26583 59.7197 6.05998
-170.446 8.37649 31.6203 13.9758 52.2424 6.16086
-108.144 23.2533 45.1556 5.72118 47.8526 6.04094
-151.743 19.3617 42.7752 14.4455 59.2418 6.1715
-124.243 32.1274 52.8408 8.18973 51.5438 6.14002
-129.49 25.2908 57.734 4.3969 56.2895 6.05241
-109.336 51.9993 77.782 19.9201 63.7582 6.05127
-149.614 15.2285 31.3811 11.0495 56.4147 6.04768
-135.864 10.635 36.8737 0.947421 50.1266 6.05916
-124.717 13.4827 41.2381 -2.08998 45.3988 6.02558
-95.3691 38.8474 69.4293 13.6786 56.0642 6.13245
-145.025 -5.21565 23.9194 -0.449377 47.1803 6.19407
-144.275 10.3298 24.0902 10.3952 47.3156 6.13575
-120.652 25.2397 64.7163 6.62322 55.9616 6.12714
-146.276 -1.85932 23.9846 0.143789 46.6468 6.18974
-90.7043 30.2269 67.9375 9.92213 53.5659 6.2309
-123.728 9.40398 33.9955 -1.51545 45.9311 6.00438
-120.792 25.9368 46.9608 7.164 49.1007 6.05743
-145.336 16.3629 42.9983 9.7534 54.1506 6.1152
-128.678 21.1635 44.5336 12.0185 59.3553 6.08558
-55.2957 17.0644 89.6003 9.31448 57.2354 6.19491
-117.802 12.3236 37.1134 0.871896 45.0742 5.9987
-128.571 8.94698 36.283 1.81429 46.2832 6.17925
-152.316 4.64906 28.7428 5.29656 49.7491 6.19774
-133.09 36.5691 46.4464 12.6465 48.5495 6.11287
-119.788 23.7999 64.4299 5.97517 59.2292 6.01597
-159.74 6.55627 36.3674 7.99735 49.4074 6.07643
-105.761 31.3616 46.1739 12.6457 46.3195 6.16561
-121.66 22.4012 46.5716 1.75862 49.3821 6.11857
-109.089 32.883 51.156 9.49483 47.054 6.22943
-123.656 17.7919 36.3716 3.70156 46.677 6.14591
-166.19 -2.5768 26.0644 8.51024 50.632 6.25369
-106.865 24.3035 54.9498 5.17308 48.8946 6.12622
-94.638 17.3839 45.6095 5.23391 49.7713 5.99747
-84.3747 19.408 52.1198 3.11039 40.9578 6.10134
-67.5648 33.51 78.1555 12.3408 51.6432 6.20131
-133.792 15.6197 33.7395 8.43191 49.3166 5.9856
-137.958 14.5686 33.7084 12.0265 58.4995 6.09135
-159.861 0.0208635 9.35808 5.00667 39.4991 6.16556
-140.203 9.39449 29.6467 3.07878 49.8089 6.06687
-146.64 3.74768 23.2958 7.26457 50.2555 6.2527
-122.233 30.0775 49.6112 8.42523 53.4304 6.16419
-105.333 23.3095 39.549 11.7609 46.4788 6.14629
-103.393 37.5281 61.1455 9.9801 49.0962 6.12896
-107.739 13.9199 39.6502 0.997588 40.5341 6.10372
-154.434 0.802585 30.4444 5.27292 50.7602 6.22587
-143.535 23.4159 41.5608 15.0217 63.6209 6.09115
-135.531 28.6493 46.6065 12.0182 54.4644 6.13282
-118.068 13.0615 27.6033 1.2592 38.0127 6.03921
-126.909 14.7617 33.924 7.55485 48.5811 6.09306
-139.064 4.61925 11.3851 7.85893 48.1976 6.09507
-108.464 28.9218 51.9846 8.29078 47.658 6.14925
-155.984 6.30658 39.7605 8.47632 60.8133 5.99915
-132.092 16.2811 46.4302 8.77568 58.1183 6.08967
-127.106 10.1811 47.6033 -0.792437 50.5522 6.03423
-153.689 20.2908 40.1585 14.8257 57.346 6.10777
-108.854 23.4662 51.8613 9.16321 56.4042 6.01737
-160.723 3.59536 42.3092 8.511 53.4716 6.09351
-99.9125 29.3917 64.1867 8.46248 54.6872 6.30509
-115.412 18.3285 32.0287 6.81297 46.7147 6.1554
-140.997 11.5427 26.317 7.16402 47.0775 6.17589
159.038 -17.0934 33.251 -1.6627 49.7651 6.25122
-117.503 22.5765 28.0307 5.16346 39.8967 6.13289
-149.978 -18.2337 1.95079 -3.56115 39.8707 6.09473
-124.276 18.6192 39.9521 8.50053 49.1079 6.11162
-127.77 31.0297 48.0706 12.9747 52.7818 6.15708
-125.449 15.3347 45.5592 10.8404 58.5917 6.18672
-157.684 -4.0761 16.5208 2.93213 45.6168 6.19449
-119.063 21.567 41.9445 11.1742 48.2761 6.12567
-161.079 -13.3409 14.3843 5.70859 49.4581 6.19833
-139.635 12.723 36.8252 7.3456 52.2732 6.14911
-162.582 -0.847456 18.5923 5.05405 41.4755 6.15708
-138.58 6.83365 27.786 1.84773 47.8172 6.08907
-144.922 11.1483 38.7926 8.15904 56.0456 6.12085
-100.127 29.2126 53.4754 4.93388 46.0981 6.18411
-154.997 10.348 19.6767 14.17 54.3838 6.25474
-116.658 11.8093 37.1986 4.39267 48.7006 6.11327
-95.6214 21.6827 50.4606 4.18064 47.8623 6.13283
-140.996 14.1675 17.914 9.37973 45.7074 6.1594
-98.6899 20.8567 44.5149 6.11817 46.0422 6.09181
-96.3965 13.5835 13.6564 -2.56217 25.5722 5.89796
-124.428 20.1616 45.808 5.49015 48.5783 6.0973
-164.265 -5.17499 32.4106 3.56789 51.939 6.10527
-146.899 3.70978 11.5685 3.5163 48.3723 6.2514
-119.716 25.0268 49.5033 3.34094 47.9503 6.16281
-144.365 10.4631 21.0575 10.7378 52.5305 6.0664
-119.024 24.4039 48.4504 6.02898 47.8803 6.13428
-126.738 17.9425 32.7223 4.33392 42.3366 6.03652
-91.2581 27.6605 61.2619 3.5189 48.8939 6.07276
-133.675 8.62049 17.7051 3.2653 43.6184 5.93748
-92.6828 35.7787 61.1638 7.38887 47.3578 6.18851
-158.613 6.53518 23.564 12.197 49.2809 6.18913
-125.071 17.5804 14.5549 5.13289 39.3138 6.15899
-111.817 26.7362 56.5377 9.17758 53.2719 6.0995
-124.185 30.1831 50.3264 15.3579 55.513 6.07312
-123.857 13.2457 48.2536 -1.9617 51.017 5.9879
-150.467 9.09831 41.5269 5.83041 54.1534 6.12799
-149.787 12.5778 25.6636 11.837 47.903 6.03828
-165.097 -2.01341 35.8206 8.82703 57.9648 6.14574
-123.123 34.2594 57.0804 9.68087 57.216 6.01773
-159.65 -3.15909 38.1722 6.6086 59.3967 6.13906
-129.161 4.16497 42.2152 5.21141 54.3959 6.10048
-95.1359 19.0967 60.3499 3.69294 45.0672 6.02835
-155.443 11.4862 11.6467 13.2628 43.5778 6.16631
-168.663 3.69941 34.1898 11.863 51.9214 6.18768
-119.253 18.9083 45.7008 7.47319 51.8028 6.02139
-96.659 20.1925 41.9453 3.60607 39.542 6.11298
-110.118 25.1293 53.2581 3.14927 47.8193 6.18773
-153.6 12.593 29.3543 15.268 52.9212 6.03449
-136.162 12.583 25.1154 6.82386 44.7932 6.2196
-104.052 25.6119 53.0158 1.69211 47.3221 6.1845
-110.693 28.581 51.7041 11.1766 51.0378 6.27929
-160.58 2.46067 28.4703 1.66388 45.8137 6.1553
-132.569 27.36 34.1245 17.3179 52.6044 6.19732
-115.728 28.2989 42.1949 12.0936 47.0366 6.14613
-112.382 29.3801 67.358 12.3314 60.7374 6.14506
-122.064 23.8708 44.1978 1.52404 46.6645 6.13166
-109.943 18.5952 58.066 10.3584 60.9796 6.11369
-94.8208 31.8799 63.9178 9.55475 48.6197 6.16085
-139.011 26.9893 38.7164 13.0161 50.2495 6.20686
-119.793 18.0861 50.8545 4.07454 50.5713 6.04514
-114.965 35.3578 58.2572 9.90576 53.188 6.19292
-64.2153 26.6362 90.2015 10.2968 56.4159 6.25304
-84.8486 30.8119 73.1655 11.8264 60.6736 6.08001
-129.716 10.0205 29.7979 5.08256 47.708 6.11649
-83.2474 20.9013 59.4178 7.12544 49.7475 6.08252
-133.352 21.4156 37.0445 4.81612 47.0442 6.21324
-169.935 -6.38495 20.2877 2.70045 45.1695 6.13619
-152.598 2.71275 31.0044 11.0921 58.9356 6.22143
-131.373 5.60797 32.1395 3.58195 53.1948 6.19272
-150.098 21.1604 55.309 18.9954 69.3804 5.98895
-119.763 6.94321 17.785 3.97071 36.1148 6.04284
-112.991 33.2256 53.7797 11.2384 47.0368 6.13531
-126.806 27.5545 66.2191 16.4193 69.1161 6.0274
-120.072 26.0235 46.2553 0.316501 45.099 6.18621
-129.679 22.1552 33.4153 11.6922 56.877 6.28024
-134.271 23.6297 26.3573 14.4492 51.7193 6.25837
-114.748 38.1737 61.1662 11.0675 53.0126 6.14511
-121.178 27.0647 40.5393 10.9891 48.8572 6.12436
-98.2853 18.5579 44.5411 6.9396 48.7196 6.15838
-150.303 -9.04187 9.7518 3.03788 46.75 6.10353
-134.829 20.3424 51.1808 4.67813 52.5341 6.05194
-156.387 -4.54694 23.9524 3.21869 49.024 6.04292
-121.421 14.2117 44.576 6.62626 64.0118 6.11278
-154.433 11.9337 33.7708 10.4795 50.1679 6.15182
-150.148 2.14486 23.8625 3.81519 44.1042 6.17355
-73.1988 32.8437 65.2391 13.7005 49.8113 6.06347
-98.6585 19.2505 57.4422 4.14294 52.1803 6.10303
-151.853 29.5693 51.8057 11.8227 57.9613 6.16518
-121.417 22.0899 41.9542 3.95388 45.0187 6.21771
-120.289 31.096 57.3262 8.12974 53.5402 6.14038
-107.467 29.4252 59.6656 14.0185 57.6969 6.18228
-146.951 13.7899 32.4116 11.4053 54.2795 6.16265
-113.91 21.3086 54.6395 -0.555843 51.2366 6.20324
-105.07 30.5216 70.2239 13.8654 70.6984 5.93901
-132.067 22.3115 47.923 13.6392 60.8661 6.0959
107.758 -37.7511 55.6533 -10.872 49.6034 6.15212
108.953 -25.7707 56.4293 -7.13968 53.06 6.22116
133.554 -28.6065 48.1596 -10.4205 55.9147 6.17193
134.307 -17.5578 54.333 -6.67587 55.1979 6.18535
110.279 -19.0071 43.5066 3.69259 41.5104 5.94003
99.2564 -43.5829 80.2754 -17.6046 62.1648 5.99346
159.596 5.27265 17.6325 -2.14813 42.6973 6.14024
148.333 -23.1313 51.8907 -13.7991 58.2867 6.11471
82.3781 -26.7132 81.4244 -12.1902 58.8603 5.98644
94.492 -28.7727 56.2169 -4.52284 47.8612 6.15489
153.948 -11.0271 27.5437 -5.8506 47.7617 6.23211
126.504 -17.7056 28.6774 -9.99694 48.7386 6.10129
147.992 -8.33219 37.1971 -6.91237 50.2785 6.21069
149.553 -7.03187 27.7841 -8.34215 57.3534 6.06305
100.704 -23.73 50.0641 -10.344 60.7759 6.20023
84.1535 -21.2325 64.2939 -7.77769 59.2761 6.06249
145.327 -7.76123 45.8189 -6.50139 55.6862 6.09842
99.5344 -16.4714 50.6313 -1.19216 52.899 6.11447
120.94 -41.8741 63.5452 -6.80555 57.6813 6.16288
117.805 -22.2705 55.8918 -12.1458 60.9298 6.07181
83.1991 -27.2693 61.4113 -11.0872 54.0373 6.23167
149.94 -2.80648 34.8636 -5.79199 56.2556 6.08563
-70.1049 25.9128 77.4062 10.3358 46.3045 6.20918
-154.078 5.59467 34.0622 11.7388 59.8156 6.05649
-124.92 15.1528 42.0141 5.88608 50.6558 6.08459
-106.468 32.6735 62.619 5.21117 47.0915 6.17596
-151.182 4.27411 18.7667 5.55926 46.0724 6.12231
-90.7821 24.6823 55.6119 6.4813 48.876 6.07955
-107.752 12.4134 21.4706 1.33336 33.5716 5.98116
-141.005 6.47426 20.2464 5.9019 46.1416 6.16304
-134.244 -3.906 12.5524 -0.363914 42.138 5.98959
-133.163 0.912965 33.0047 -3.88084 41.8387 6.1318
-118.679 17.9242 43.0862 10.6304 51.4196 6.05455
-132.405 15.4052 47.6073 2.00111 48.4007 6.16143
-138.533 10.5973 30.9215 2.38881 47.6047 6.13405
-147.921 6.11037 41.0421 6.19177 54.4771 6.29231
-110.948 15.4715 46.102 0.759857 43.5642 6.24628
-125.019 18.9793 46.6905 2.41781 48.2563 6.15802
-149.212 2.51094 31.948 -1.02653 48.5501 6.15971
-134.136 10.6161 25.8049 4.02353 46.8048 6.08203
-144.026 7.3262 14.8795 7.92904 43.9959 6.19855
-143.793 7.90873 31.6633 8.01086 51.743 6.05
-128.26 38.3121 49.6773 13.3677 54.056 6.11799
-146.208 8.59019 29.9387 -1.63092 47.0934 6.08854
-113.71 23.9724 52.8664 5.2498 50.6375 6.05849
-146.573 -3.97655 25.3938 0.164027 47.4444 6.06622
-131.472 21.5493 42.5668 0.585731 46.4679 6.11296
-101.637 17.3943 54.1815 2.23093 49.0603 6.15352
-115.964 21.2557 49.1139 5.72021 50.7637 6.12565
-114.405 8.35755 35.2526 -7.65704 38.5887 6.07732
-108.779 31.1295 40.6322 4.08871 42.607 6.15675
-136.507 37.897 53.2015 7.18379 54.6067 6.22878
-115.269 15.6282 34.0142 4.03943 46.2096 6.04169
-156.303 -8.44257 21.1245 0.807711 47.1183 6.07092
-108.667 15.2012 36.8807 -4.56078 37.1475 5.92435
132.492 -23.3168 50.5886 -9.86153 55.0181 5.99803
112.097 -14.3898 51.9591 2.97377 49.8455 5.99217
153.239 4.62577 12.793 -4.00472 44.5968 6.05625
132.545 -2.86065 32.6857 0.606711 47.9502 6.13603
120.116 -8.80633 38.3264 2.62776 47.6971 6.02515
108.54 -22.3296 63.4348 -0.730098 52.7149 6.23723
160.468 5.19889 23.2009 -2.95588 46.926 6.26757
107.121 -17.5109 35.8947 -6.94666 44.537 6.10677
123.499 -18.2735 12.862 -4.45105 42.0878 6.17831
136.782 -27.5607 55.3197 -15.3154 60.9376 5.92396
136.715 -15.2936 46.3597 -12.7586 62.1502 6.11792
162.93 6.85439 28.3907 -7.68362 53.2066 6.13407
137.081 -25.518 44.997 -15.7907 58.765 6.01784
131.151 -25.015 33.8685 -12.0294 50.2338 6.14209
133.525 -10.169 38.3895 -4.97729 48.6313 6.03919
167.546 -20.4372 41.5996 -15.7759 58.7285 5.99024
119.596 -14.1648 47.3356 -0.183698 49.6764 6.09971
-172.326 -5.89474 29.9272 -10.2032 50.3776 6.23239
172.66 -11.0607 38.5277 -13.2976 58.5968 6.09073
103.841 -33.1181 65.3371 -7.13632 51.4544 6.23081
141.098 -11.6207 24.9419 -3.74727 46.4888 6.1767
109.217 -21.7454 35.0349 -5.72988 40.5779 6.06017
91.1263 -40.9224 69.5998 -13.7687 56.5619 6.22102
134.709 -2.29903 25.9409 -1.4038 46.3388 6.11312
122.439 -38.1384 55.6731 -11.9455 54.0016 6.2182
121.941 -29.5602 51.1243 -10.8647 58.7895 5.99218
109.066 -37.1635 53.9186 -10.0448 50.2924 6.08335
119.758 -8.67129 47.3389 0.138359 46.9594 6.02933
148.361 -4.8599 25.7284 -4.92625 46.8831 6.12589
175.54 11.2057 26.9516 -6.50837 53.5263 6.23332
115.843 -24.17 54.5279 -3.83453 54.2601 6.07658
133.759 -19.9207 34.6061 -12.8328 50.3375 6.14708
140.659 -13.4218 37.2848 -5.46315 50.848 6.00517
100.566 -19.9589 58.2739 -5.89697 59.7438 6.06991
131.298 -23.7146 34.8642 -13.77 53.7084 6.24711
165.585 -12.7458 37.067 -10.1917 53.3805 6.14425
106.068 -14.5796 46.8392 -1.5627 46.6954 6.21125
129.05 -10.4137 47.5665 -0.923751 49.8724 6.16812
156.325 4.05832 32.2679 -3.6813 52.4491 5.97276
78.7044 -31.5469 79.7413 -10.298 49.8939 6.15945
102.696 -8.90742 56.5894 0.390449 49.6598 6.06105
144.945 -12.8899 27.6592 -13.7508 52.3418 5.99935
86.744 -31.5574 57.9856 -13.1493 48.0873 6.24312
156.615 -3.57099 39.3382 -6.94835 56.4007 6.01572
149.602 2.18184 16.2513 -4.32157 42.2054 6.14897
128.725 -20.4094 42.628 5.25977 47.846 6.11993
122.767 -15.968 23.3196 -3.56524 39.9247 6.16303
137.387 -21.8275 40.9396 -9.01103 50.3939 6.15256
103.112 -14.9699 37.8921 -1.20179 40.9765 6.09417
113.445 -21.9677 56.4221 -8.43353 53.2082 6.12538
120.815 -22.1642 31.3643 -3.56568 35.5838 6.02946
135.948 -4.19024 19.5456 -1.52932 39.5411 6.1496
124.071 -22.8342 29.19 -9.56932 46.4932 6.20558
102.367 -17.9956 39.994 -9.3176 45.9164 6.18855
99.3113 -25.1442 56.2232 -2.26943 42.1533 6.01026
155.149 -6.51063 23.69 -9.15803 50.4702 6.29727
115.617 -13.9318 38.5461 -2.15874 46.3839 5.96192
141.723 -7.23578 31.2525 -8.20009 51.2423 6.28076
124.625 -15.6445 47.1877 -3.62627 49.2332 6.13321
122.73 -14.3144 42.9419 -1.15988 46.7293 6.22089
155.989 -12.5371 24.139 -13.0018 49.8011 6.1003
137.563 -10.8905 33.1394 -5.57819 52.8509 6.10002
112.087 -33.6166 64.8686 -6.94727 53.92 6.09238
128.838 -13.1196 54.5349 -5.68682 57.7417 6.10734
